pos_x,pos_y,yaw_angle,v_x,v_y,omega,dacc,ddelta,theta
0.2997042369790906,-1.0515010173507144,25.104016785003257,2.6726942209113878,0.01591854673713488,-1.0545343756951686,0.06705206925115796,-0.009621855840405188,0.15952534320326517
0.38814326972530155,-1.0542500553705916,25.08000361265418,2.637865309758616,0.0324427804314494,-0.39380522967143305,0.1333628930684825,0.00512014702919591,0.2420419468858966
0.4755531139290458,-1.0585136172445682,25.06972229406011,2.6140927297208703,0.007607986358255974,-0.3651182560258469,0.18873426643095428,-0.0449530778390921,0.32775112319778543
0.5622647463831797,-1.0641491546963222,25.061893757079286,2.600776815856153,0.02793891807553999,0.1279326167915601,0.2553474463589434,0.07836779253450438,0.4140176081062972
0.6485914501027853,-1.0682815225371936,25.090142725955808,2.5814447026393443,0.03202389291045475,1.5961909235250697,0.21273841792658144,0.18615167468108568,0.45553389959065776
0.7340191352110031,-1.0683979449042964,25.164177864549472,2.541416506668116,0.0015773826247428187,2.7671165719507442,0.15416036516511866,0.2668382738939949,0.5750064407337985
0.8174886578571554,-1.0622155424264577,25.26780083105566,2.4781653790314175,-0.039470592931004675,3.3743306285754837,0.08752714535250691,0.3321970727073027,0.6662803215243918
0.8976300199840961,-1.0485488424189098,25.384577990006015,2.399194160580759,-0.07394833615362809,3.5866821729599163,0.07073972140164111,0.3526671942748395,0.748172409966241
0.9733332221324309,-1.0271359769757034,25.504768493243667,2.322725835633864,-0.09278988321955914,3.606358078173269,0.13736383793839146,0.3365736538007249,0.8243608656363393
1.0439479889318328,-0.9981158999468819,25.624288655502838,2.25852739593083,-0.09606480182295747,3.5598230105809705,0.1913492305036314,0.32880285026300565,0.8952940054421934
1.1089413661465854,-0.9618637150636599,25.742080641605966,2.2081697941487546,-0.08817744427115277,3.5102595064126336,0.2579794321574346,0.3112603223075324,0.9638725021990792
1.1679260555013058,-0.9188484584466055,25.85861246020636,2.1745467134190672,-0.07557434395626367,3.4854564910005927,0.32463464234769623,0.28554404604619205,1.047485745980867
1.2206503748645543,-0.8695730133302365,25.974545549683842,2.1588678633282665,-0.0647039811629273,3.4669270337784788,0.39129228532721594,0.24990654159045117,1.180815281898099
1.266999930109377,-0.8145448554775058,26.08904621574173,2.161816919064619,-0.05946787095078186,3.3852008193017813,0.4579503740768578,0.2084989687779375,1.314146196446563
1.3071248225462413,-0.7542833125196459,26.19677388690731,2.1866873517153493,-0.06537784475162786,2.9793762183528303,0.5245833942159702,0.11917506351008901,1.4474711189727105
1.3418016240939818,-0.6893767588359612,26.284541304752505,2.2304630766680518,-0.062065447433122804,2.2983013727091848,0.5904063789325272,0.09254105627376838,1.5670911310304487
1.371755447674982,-0.6203203668679087,26.349756507687527,2.2872754728784748,-0.0514050352611749,1.5951246669797883,0.6270526833981418,0.049157340079170456,1.6489184066222233
1.3982694146891028,-0.547783147734699,26.391579726895355,2.344551656136645,-0.03722287579772523,0.946848279018515,0.5661675219589878,0.02654380265472013,1.7243825046087407
1.4222365164286055,-0.4725640319026707,26.420854954143593,2.3891678560494576,-0.009298672554875594,0.9616060742040521,0.49958081970284,0.08381045594048978,1.8002833941249872
1.443208949212601,-0.39519680588625283,26.461510747417865,2.4184082794121506,-0.0001271077158156459,1.4973043464189644,0.4331501602935724,0.11320610409814327,1.8777535937732304
1.4605294595837723,-0.31618127095913423,26.519057123389466,2.433538174298348,-0.009400323352095697,1.9273172258230684,0.3675211152802764,0.12454201316289809,1.9566054037293739
1.4734758923374658,-0.23600038266589524,26.58299496449849,2.439407948366326,-0.03562834002217948,1.7559023287900044,0.30086486397718426,0.05628655867185384,2.036832753960417
1.4827800788849907,-0.15522060628599038,26.62647435443808,2.4372999945238574,-0.05482123248073445,0.7327851237245055,0.234232719802152,-0.026924651310551898,2.1175817401663006
1.4903846789970627,-0.074503347210848,26.628662713299963,2.423912682463551,-0.04555042766862159,-0.5987056527576466,0.1675944932644316,-0.09147821391845455,2.1982493354990886
1.4988196628047898,0.0054446049538525165,26.591437163800517,2.3972514135827905,-0.019788438951338222,-1.5515509472097384,0.10100562668212675,-0.11719010035962144,2.278147340314268
1.5101197337217456,0.08392620997520735,26.533526928641137,2.3594125562665496,0.009803212541443389,-1.7996719584646743,0.03438440882302002,-0.08810147261350933,2.3566169862371695
1.5247149517264322,0.16047862395786816,26.48121637202876,2.3164930799909245,0.03680643654561097,-1.1836009821571811,-9.97006383701704e-09,-0.010066616023514191,2.433197343978983
1.541040493468574,0.23520617666417304,26.465334791677837,2.271397080893421,0.05355585100283038,0.34906974572605565,0.010076664703460986,0.11790375488098437,2.5079533625034687
1.5559595979892542,0.3085987860454312,26.504546513548338,2.2202712340792137,0.04113394403669271,1.9324956104802922,0.0017329688121023035,0.194465038786663,2.5813093926677153
1.5667650998784177,0.38089702681339294,26.583773865000296,2.1674035894632353,0.012599548577751047,2.6768261492427095,0.0050900044413712455,0.17278758041769218,2.653565057516623
1.5719906338827392,0.45207355536055427,26.676420706685548,2.115900832609708,-0.006369170388334875,2.8406169061500663,0.012048361976871784,0.1757210056329558,2.7246591167770307
1.570704690494145,0.5216096479464025,26.77585930861664,2.055924450374452,-0.001907570776125968,3.178704314334162,0.020729455152013652,0.29872197408947954,2.794088478563117
1.562139614097224,0.5884078950361844,26.888878513036993,1.9862948293257936,0.0010832645834454395,3.583699727894461,0.024752280013092973,0.35227778756935246,2.860872838243168
1.5462500743570289,0.6514952599517836,27.01299441386628,1.9223161341011306,-9.98852492827408e-06,3.8366987348769612,0.08158673532100263,0.31956101236040346,2.9240278817937995
1.5232033301381718,0.7103419834175904,27.14266812941246,1.8752777620472807,-0.002362110669684778,3.910335362462112,0.1381990986664634,0.27285423820906396,2.9838869895170834
1.4934277539396301,0.7646515775258854,27.271081328718,1.8465218780480221,-0.005892104446635831,3.7500532019982318,0.19288585153577528,0.22229185522708117,3.041200560457169
1.4575849568977215,0.814349052432024,27.390800886976997,1.8347435925174524,-0.005517223618263482,3.4226086648343252,0.2595329998087102,0.19650324058703772,3.100566149127561
1.4163671616607028,0.8595126654067063,27.498176788638652,1.838133187267985,-0.004109309242209263,2.99465512583883,0.30541957286009974,0.15690814259648428,3.1678610918530428
1.3705843258709396,0.9004386438382098,27.591431502123616,1.8473723830469626,0.0030577100541816678,2.6445116919052976,0.2965080325641923,0.15519066326305755,3.2425483456722786
1.3209596939886283,0.9370559756471237,27.67743798218205,1.8531161689458202,0.011802783120698518,2.5539887618915222,0.26720299293051797,0.1641694040772269,3.3215609041627308
1.2682119415188087,0.9691382924205116,27.763051048202584,1.8503867788539463,0.016068244956237446,2.5920145273392254,0.20144417725791686,0.16815342301678324,3.399878573883173
1.2130924659101108,0.9962613009547214,27.851980711838483,1.8338396106118258,0.022855093345841383,2.779839612172053,0.13608575284765867,0.2044025678941756,3.472426902624974
1.1563482110566272,1.017631350723355,27.949774955509504,1.8034061071223617,0.028556267300878634,3.0931507476908093,0.08086703438212703,0.2336837494642795,3.5356349803479867
1.0989305841444317,1.0324107633069444,28.060859552441617,1.7499847044668992,0.0396021173210738,3.6009466415627087,0.014497853334792823,0.389313028812023,3.5953748621325223
1.0422141759153791,1.0396076561077374,28.18869228923859,1.6819677570983491,0.044951056307526105,4.039205429471988,4.5390780917042156e-05,0.3843781081360136,3.6516764270421764
0.9871571753177063,1.0390886916499065,28.326189748957468,1.6278284361628412,0.038696686877669154,4.075121065286004,0.005663868407573475,0.24425611837595307,3.685348364797875
0.9340316122067741,1.031746243131269,28.454150975950675,1.5933945568584342,0.030296843246604286,3.5865487453285003,0.06366073109154534,0.2132298913465976,3.7187505249997987
0.8833069626778853,1.0180926284961285,28.573099279166918,1.5566994836247519,0.052794864229355615,3.681499596313289,0.10373897419701075,0.36144524990193516,3.8037014407246486
0.8361567589618215,0.9980095951870328,28.703137596795326,1.5207356234298486,0.06783922898318014,4.115655524721548,0.17039060827606808,0.3783977431909014,3.8682014491820302
0.793011745358091,0.9719542457576856,28.843052700071084,1.5089109873409696,0.06052467200918811,4.14494584239418,0.2331489472705109,0.2639844366927247,3.9303090345472405
0.7535476900959652,0.9405896821223328,28.97509457590109,1.5167909719560724,0.05198583387362177,3.7968969134450816,0.2970254472315409,0.25451232032772353,3.9927107300338176
0.7180393314806719,0.9042981063722522,29.09784278100225,1.529829974076272,0.05075218307181257,3.5827375042680787,0.30159913332275745,0.24458947940803805,4.054459443071207
0.6868071344809332,0.8636382420562837,29.21555331186273,1.547921669878046,0.05210596249976684,3.506721163567058,0.3676284788215924,0.25158742023375213,4.117315169422406
0.6601525374914065,0.8189377120456979,29.332493203551962,1.5767106865240066,0.05085555833027042,3.510630828007785,0.4342728597942492,0.24734163545976412,4.1793913485276315
0.6382777865750308,0.7704430745447043,29.448796661687325,1.6177108768395085,0.04470747938116729,3.450863221143165,0.5008555375638517,0.22901810584701066,4.239314912251808
0.6213559744386415,0.7183800964055284,29.561831486333904,1.6688024355229303,0.03719180732483864,3.327167700929231,0.5492533542283863,0.21444836799167089,4.295935510859255
0.6096567856018353,0.6630236367414409,29.6708770380918,1.7282877824540024,0.030791344161905123,3.223223929573644,0.6122950781567947,0.20733699977773262,4.352876041097468
0.603001618177648,0.6045805193748154,29.76678450103951,1.8059471432882133,-0.01313295713425092,2.2343521027915276,0.6673246277047015,0.03585520467350753,4.414805556687138
0.5988079545870455,0.5431299596247738,29.80946219313044,1.8886698437946154,-0.042040178877543036,0.2891189077677261,0.6884236234785635,-0.08479235458812459,4.473462559365653
0.5945517725548205,0.4790761762435905,29.78813124513462,1.9582639188960222,-0.05003617869183301,-1.5262709126569396,0.6245026581265131,-0.19904392560804673,4.539079343410002
0.5870232729050571,0.4133559250761263,29.71543841371064,2.007917955741496,-0.03935454871585855,-2.7386412122635706,0.5578896227953606,-0.23966249571161607,4.602780738561879
0.5739922778183641,0.3471176403478293,29.612768047259777,2.0411724740918578,-0.01875345039717574,-3.3547733965571984,0.4945095033234542,-0.2540585195581944,4.668450374765034
0.5541942754192302,0.28169345988044403,29.49601979317095,2.0598242942042653,0.0037863889562364493,-3.603803192051754,0.42785585505189677,-0.24501441056429926,4.733852145717947
0.5272217058453723,0.2184520720361987,29.37493020631701,2.0654033326215036,0.021784617682604115,-3.637554523445478,0.363025355190009,-0.2349721466306046,4.799105360157357
0.49328203114058045,0.15861829820543405,29.256338071655033,2.0632803862829494,0.03707037711195399,-3.4112345419483145,0.29662028152247166,-0.17207838615917215,4.8734803407120415
0.45320123746906626,0.10284383872968497,29.15060169453229,2.05834073149817,0.042419029243640764,-2.9088380995982774,0.25759599859022475,-0.13516296813220902,4.963627980949329
0.4078110784060933,0.05191482959493108,29.05309986134383,2.0288768702759112,0.012597303129106122,-3.07949969763523,0.19217223624195484,-0.39420931569819195,5.084698817895487
0.35799959571002604,0.007556880953034618,28.943831063504906,1.9737779677628942,-0.001120322001446768,-3.4719938578737644,0.12550565933571328,-0.39999984134718725,5.202120705134652
0.30491454130153095,-0.029425762605352186,28.822804927822432,1.9089036247793516,-0.004546540977726721,-3.773273895677206,0.05883968870610558,-0.39999942307390907,5.302502531332133
0.24960553506230432,-0.05833250607733978,28.693408436344722,1.8378287182062567,-0.007493339819793695,-3.9755001684602203,7.195921981617559e-07,-0.35384558801062294,5.380117012029532
0.19311183607288823,-0.07879186668180388,28.559301175350544,1.7722705297501922,-0.010386717590467491,-4.032252877896551,2.0666483443012763e-05,-0.2812588320207925,5.441663752016849
0.136378958295102,-0.0908889463280087,28.42474323558926,1.7097366773805724,-0.02038653698486364,-4.070185564780389,0.013783896143597553,-0.35777981361376615,5.500264402041015
0.08054696671776684,-0.09463911351383146,28.28807553946669,1.6534039687258029,-0.029120956429938612,-4.084178039329183,0.026989241114126396,-0.2792795285522151,5.556027546824497
0.026317264439526755,-0.09078375630136351,28.156082652101215,1.612574548767898,-0.02911906489944233,-3.787732941780482,0.03974083660706774,-0.23098706478634384,5.607447222201257
-0.025530084604475214,-0.08006088318525544,28.03006122931864,1.560273738322667,-0.05088530715472533,-3.8857050689539454,4.228746165601399e-05,-0.3972347148417392,5.671091687872413
-0.07351057331313296,-0.06260246739138822,27.89568572013421,1.5089307756165613,-0.06136823177562317,-4.104580854454264,0.04547295369763658,-0.29573494453329113,5.736370719740359
-0.11740444358083163,-0.03925687467040877,27.758573145470613,1.4743211518031853,-0.06715394942466736,-4.1547626816067424,0.11042821149379478,-0.3432689813596708,5.801112438045849
-0.15669803435434276,-0.010426493145700252,27.61876859270165,1.4525147877332167,-0.06927299436302051,-4.192612202044042,0.17249933268108614,-0.3080790398219523,5.862953736538494
-0.19129204625963223,0.02326656126147126,27.480576960011902,1.445771463994306,-0.06868755833529769,-4.100678466222184,0.23533351550575665,-0.30455821711365955,5.917226450562076
-0.22093001170665294,0.061341541858001954,27.34483763893617,1.4499170212714731,-0.06921768981414984,-4.051024286651143,0.2966443089483774,-0.30431115844456436,5.954658823751489
-0.24539609058550232,0.10332244174734129,27.21139102468336,1.467040979606014,-0.06410809364884143,-3.926094904321885,0.35373363642011624,-0.2723463186499264,5.985182988928118
-0.2650815750603832,0.14862661195078636,27.09211971635191,1.4990244577177432,-0.026203151062625697,-2.9845680389767484,0.3243940498439669,-0.11915962859930493,6.082357238819018
-0.2814887695615791,0.19639324230464572,27.008024319964733,1.5298311716846476,-0.035686831719784526,-2.2958574428606022,0.38033504468625046,-0.16800087404675793,6.147124056385268
-0.2936470727593994,0.24649968088421664,26.92779739548012,1.5643208424456292,-0.047734904403599863,-2.58188350229674,0.43768501673091254,-0.20982393365107394,6.200902668581785
-0.30163188165606747,0.29879192284768674,26.840520264080755,1.6135214510859954,-0.03074902824607826,-2.5080670536395675,0.5043507137286156,-0.13527427834588568,6.254821772542224
-0.3066322305167961,0.3533929780424438,26.774964203714294,1.6783136676392538,0.014330221333895471,-1.2224057769111953,0.5657270777825744,0.02347801486842538,6.310005355934033
-0.3112134948422487,0.41028083254310665,26.767209695077707,1.7451541563485717,0.04500368305424252,0.771401296342056,0.6323874758902389,0.1709921923908743,6.366833047974078
-0.31807301927122955,0.46917437865563016,26.820949852815712,1.8119494034469297,0.05396605855735946,2.3754946115757907,0.6988324626154294,0.25938731430365203,6.4256947855530235
-0.32974115822072586,0.5295780506332908,26.91680855537542,1.8792082657898503,0.0433036555589541,3.2857446688206267,0.6995274346255632,0.2685046183436093,6.486035714905087
-0.3478838145941529,0.5906295147431901,27.0343261337059,1.9425655874007486,0.02317200920080872,3.7195522858145647,0.6985336485704249,0.28104953253475634,6.547035482302609
-0.3734886357970481,0.6511432375862256,27.16177289700942,2.0016598296120374,-0.00049707174761595,3.891377797252094,0.699351862662527,0.26780507552729393,6.608490783366474
-0.406901438957642,0.7098891624430561,27.291317480066642,2.0538138858642507,-0.024966946202144794,3.84691715253966,0.6327827251356605,0.23299517781186635,6.675715301626226
-0.44786118879731696,0.7656126555161527,27.415984079893526,2.0959098020538542,-0.04526193603928877,3.599982946148675,0.5662438428755777,0.1908948468288465,6.775194730570709
-0.49566871884603875,0.8173404498554736,27.52928928457867,2.1299319690824126,-0.05627912063989171,3.168896678963342,0.49976652729897786,0.14878195676630532,6.902186951989304
-0.5493103439764211,0.8645749031512331,27.62519124754761,2.1577660311013003,-0.0569263147232122,2.5507701869853636,0.43310994715922535,0.10177573493314604,7.032712338849794
-0.6075528598833096,0.9074146197226007,27.699232716746213,2.1787542594709213,-0.0439464853113528,1.9175202561791451,0.36647956773959184,0.0806813704178437,7.148164909518058
-0.6692140727939674,0.9462060388652813,27.75625323754171,2.1904969030221815,-0.024480224857317177,1.5637361357090827,0.2998250748315846,0.0823632909596192,7.2378035990826985
-0.7334024153778625,0.9807664714160683,27.816964934624444,2.1778183315372526,0.010252330282182441,2.2414850324782996,0.2332373446992571,0.29064452739901,7.308685894743947
-0.7994863057072001,1.009354160854376,27.90696379458181,2.1427089263044397,0.010972022957812988,3.101836541774438,0.16839291083016766,0.27738442257890367,7.376302764542788
-0.8667112566645976,1.030951512730149,28.019301674743197,2.0921006448279327,-0.003200494355944916,3.5987951634921576,0.10712997349356516,0.36318907499487346,7.444666968871091
-0.9339416619232809,1.0444764566149232,28.143910404502506,2.022309380542486,-0.015603052332609824,3.843878783852518,0.041491066418329975,0.3986183477276377,7.5110776206407985
-0.9999196763293133,1.0494591935720794,28.273852670136105,1.9532165671177435,-0.021226055559673152,3.9102882093645173,0.03112921737660799,0.26050349750971413,7.579980000680408
-1.0637777200411913,1.046022784240092,28.404021617182792,1.8830134764799835,-0.015629750595964095,3.9230018697670967,1.7255061614946526e-05,0.37884329860362675,7.641418435920972
-1.124172180386716,1.0344159834055429,28.535735385039843,1.8131444955181095,-0.0030109563353055736,3.976061911666907,0.053087476194310465,0.3252612960951735,7.701577091592194
-1.180443270725939,1.0151771087195935,28.669047174756216,1.7601977364873045,0.009639421106911496,4.026870421252843,0.11974805720671837,0.3321812033350097,7.759825975773542
-1.2321070362844435,0.9889057994866702,28.804103013957665,1.7231225082577069,0.019095027840357277,4.066445373399977,0.18276528328527405,0.3053307059073966,7.8231949029320305
-1.2788372991177457,0.9562412735964154,28.93933996217968,1.70284758934162,0.023754456724438506,4.0365060609638865,0.24476086388526283,0.2853162544942041,7.890395900566576
-1.320414270818419,0.9178220240048918,29.071968476996698,1.6987157236448154,0.02364213467039776,3.8964281521264112,0.30370041952646576,0.25116953338302606,7.956494225851235
-1.356763924055154,0.8742747450738206,29.19861791531859,1.7086752361192579,0.023804612348722373,3.711654582691476,0.3703583738659034,0.243312702339931,8.0442936299536
-1.3877677582844055,0.826110783390448,29.31927002252387,1.732401859478841,0.021668470186638134,3.5130066569386535,0.4355269140484912,0.21624065387051572,8.130444377943657
-1.413552704214927,0.7737972568035605,29.43146409984446,1.7710838675263818,0.01484665249231591,3.1945111519979648,0.502116972480557,0.17989072389690958,8.20783978927729
-1.4344259631998666,0.7176994875498423,29.531200979630963,1.823750083124854,0.007481065808846622,2.7799122833876964,0.5687725450872378,0.14719053583957403,8.277279145779973
-1.45080392489138,0.658069522062741,29.615833883492108,1.8898265763868163,-0.0011417520799362358,2.276767088698457,0.6351691757168606,0.10620394490945959,8.340025184259625
-1.4633842477901489,0.5950611732996589,29.681974433268977,1.9676251001636476,-0.009319788922600658,1.6784695425873193,0.6910383764120192,0.06557172484983632,8.403782556041588
