pos_x,pos_y,yaw_angle,v_x,v_y,omega,dacc,ddelta,theta
0.29978948856741594,-1.0516352628243246,25.10117104827139,2.6810405856554245,0.008330974392103743,-1.2988368911190789,0.17768749967767508,-0.04623903096973268,0.15957607065851886
0.38865612347158257,-1.0556265278692887,25.058603067311626,2.65525741542597,0.02273150276404203,-1.3156632093994038,0.16896839194123361,-0.08409553785536664,0.24222437467470467
0.47630640737639185,-1.0633683498526616,25.011505820638806,2.623271244961582,0.02697532073056794,-1.4879678792539837,0.12033304584257551,-0.08347626855029786,0.328297694636386
0.5624163901269024,-1.0746526469745379,24.96949018767303,2.586690191790136,0.05436155053090749,-0.8003935517348969,0.06799912051481968,0.03026805991721017,0.4140313878089922
0.6470387704046329,-1.086735606878984,24.975112162425443,2.536977204671988,0.06668648712037643,1.2385185436081962,0.050534607106790884,0.23168531365498019,0.49857951944402995
0.730043823384857,-1.0956213907502028,25.04625025980189,2.4696269282176635,0.02536883240405012,2.8780244625092584,0.02919653854905847,0.31063307218831926,0.5814363911684273
0.8109675863663313,-1.098391900585689,25.15534527830629,2.388068188170523,-0.02539044538924417,3.558933297178429,0.012284721473510684,0.3686502779178245,0.6621885780111537
0.8888927985300675,-1.0934314922193757,25.277826866176365,2.297666621426882,-0.06254082081742063,3.7379853241481182,0.02537164680330187,0.3948845316388268,0.7400154884797578
0.96284933761547,-1.0803735726843677,25.402228405222782,2.2100043005213035,-0.07918221028011867,3.7071945391304446,0.07937177241847937,0.39945505988515084,0.8139610998121568
1.0321273968129683,-1.0593941080837885,25.524566693165745,2.1359131320371425,-0.07642503564655544,3.6361195290452275,0.14603183698184988,0.3601962481108586,0.8833205046392046
1.0963022846577875,-1.0308335172334673,25.64512918403189,2.083262789319569,-0.06296793110951213,3.5992811062443324,0.21264355956379455,0.2805595133154547,0.9480192643670514
1.155168281301433,-0.9951431807249712,25.764608251573893,2.0509497512404824,-0.0487105900479216,3.5743907293124675,0.27930103183873417,0.2722068169249218,1.0103131523754176
1.2084642564902803,-0.9528858205710631,25.883638932901235,2.0343785893757005,-0.037586764231239946,3.5673776844090144,0.34595727449702435,0.2566128878846779,1.0828039169054313
1.2559787063676138,-0.9046178290356365,26.002039295968455,2.0341641224499445,-0.03246526439625463,3.5248249568881356,0.41261192529505053,0.2292391251794527,1.1795854497270524
1.2976259243637378,-0.850858538750333,26.117447888041426,2.050654201291986,-0.03296712915882525,3.3780506690328664,0.47927277925610934,0.1958700340230559,1.2958325550480323
1.3334623018929137,-0.792092177354143,26.225752207902804,2.08328999980327,-0.03577746644432421,3.0986251682571213,0.5458948472359647,0.16253856040440706,1.417431834877802
1.3637402206329687,-0.7288099364129104,26.321665947931326,2.1283523038624583,-0.04094560125182549,2.6056080082720263,0.5632190319285844,0.10999282416252318,1.5281174563004305
1.3891709793474758,-0.6616913246169933,26.39611083556739,2.1785961955498325,-0.04485967907942004,1.8096521191955488,0.5455709131395958,0.05140431933894863,1.6076179851339643
1.410928383848762,-0.5915453106478339,26.442724093228637,2.2266813957100564,-0.034250380956262746,1.0331536961292351,0.5083745681511256,0.0283364642321384,1.6806508330232377
1.4301216484483106,-0.5191136922807726,26.46834196190204,2.2674223800450757,-0.02093344785951136,0.547093612032935,0.45193528434760905,0.014206962664633277,1.7537533053483774
1.4476846546389863,-0.44506130107322806,26.485059718390733,2.2965977831631985,-0.0019915529831090427,0.5620187140476851,0.38529217936211013,0.050149399026021856,1.8278935892551427
1.4633291250828961,-0.3698184028093754,26.51135223946843,2.3124622593382527,0.008778973083399094,1.0637500227235068,0.3288501990204551,0.09209899111041817,1.9031195368545941
1.4762711124759744,-0.29372946516044557,26.554689622093584,2.3174181097606676,0.0012753368269857413,1.4872413797950448,0.27688766717528435,0.09298271715017514,1.9791648829272683
1.4860256930450755,-0.21711061218215438,26.603876288645257,2.3170219437852255,-0.018216235490817443,1.3533843408811852,0.2490178196504702,0.047748642603173054,2.055816238966482
1.4930510420126395,-0.1402551591677486,26.638540385070655,2.312476074772974,-0.03138436524842647,0.6527262058767682,0.20742164599050725,-0.008009596908988247,2.132585294288436
1.49866542453566,-0.06353731125629988,26.64501300631307,2.3012283524871826,-0.0305766867719222,-0.2770637776036007,0.16844172356251555,-0.05912130021152876,2.2092620511130323
1.5046928797666306,0.012646353508469252,26.62267303722896,2.282847139285805,-0.017817411331383523,-1.0086221397575936,0.13327639689253873,-0.08050013479982314,2.28542536978063
1.5126497529479939,0.0879178317941641,26.581883241117502,2.2578366044091793,-0.004946338325165176,-1.3919597007318192,0.10018572999641873,-0.08882319594839437,2.3606698506690122
1.5233904963278844,0.16192209306662386,26.535790271850306,2.2291463215813256,0.01327732616724814,-1.2616567116972273,0.07122763257848395,-0.04458531485280696,2.434684908501816
1.5362910218158177,0.2345803143750258,26.505687098068407,2.1978814371774242,0.030392450247068034,-0.43855368603067524,0.045887870424109245,0.030507758884462062,2.5073465236039003
1.5495688065077786,0.30603436254646177,26.510070499889416,2.1610657915228852,0.03320980656623596,0.7119712900192968,0.018634782581473785,0.09772777406023866,2.5787734867068837
1.5610188466152346,0.37643020575404224,26.551001913703573,2.1169574643849733,0.027230162907985293,1.704053890249951,8.78810623415674e-05,0.14845729791386117,2.649125986679684
1.5685198459513177,0.44574362430740966,26.621410369566824,2.0655042319058703,0.02289880907771086,2.4996408993583934,0.002285708666220968,0.21122547013972737,2.7183733877651863
1.570239597412798,0.5135185703894858,26.717619946804028,2.0005275873356934,0.02205696876413983,3.2590968181053164,0.007807100797982857,0.36048140975712206,2.7860265582266193
1.56494584025682,0.578795021301717,26.835360944013594,1.9330641899945205,0.01502619663185818,3.756741655585288,0.06522074502139379,0.34881974342165345,2.851309333204806
1.552235005489517,0.6409581090125029,26.96520663692185,1.8786523532532766,0.007962350491199758,4.00316037706104,0.13188741235484774,0.33769135433539144,2.913502994418432
1.532099512814216,0.6995095764320469,27.09969498010219,1.8431733068812717,0.0003486818125037353,4.0054963644122425,0.19218442849025041,0.2508868540239383,2.9745810257604353
1.5050000210171266,0.7542647774665079,27.2288645634921,1.8274186714650613,-0.006038297146147891,3.7157584781099438,0.24752082731302336,0.21377857710450918,3.0324228950403636
1.47158747952001,0.8050318722708036,27.346660652638064,1.8222474807956541,-0.0038470339024604407,3.3537177976521697,0.2644040501228772,0.19314431953203132,3.087113560425451
1.43262775240767,0.8515778454747179,27.453244930209053,1.8220999771173074,0.0032804872645463075,3.058556715209812,0.2725600212618464,0.1823046830460743,3.1504093757911082
1.3889254786913983,0.8937648050991421,27.55164534693532,1.824024046089623,0.009400636473429973,2.8592920614205664,0.2639112463645679,0.17354202483945283,3.2209596181068556
1.3412571751349003,0.9315049976725343,27.644507962588374,1.8248105281392417,0.012833924790586142,2.7207001582526678,0.2415374431588418,0.16634063524331844,3.2962368329097744
1.2903373564013483,0.9646667633434782,27.7337146595778,1.821281081043821,0.015810437982182488,2.6450045087399934,0.2068968558429586,0.1669405430012831,3.372192595079593
1.236835935322906,0.9929782566983023,27.82225505958379,1.8099437869613888,0.020751545984639783,2.6916123625055897,0.16129226455213996,0.18270445191352078,3.4443594882183133
1.1814280494294869,1.0159834311407787,27.914530183952035,1.7891390461870886,0.026068469641373045,2.859485234943003,0.11754217300664244,0.20339318312883195,3.5095208011967345
1.124920113884086,1.032942754813328,28.01773946751707,1.7463909471513448,0.04136023999360322,3.391171883859053,0.05471882893995808,0.36347882443432034,3.568220762999405
1.068562887457837,1.0426442856362632,28.14032286745957,1.6848765591735488,0.048272064934686984,3.9338815415719237,0.02584400948689688,0.3999781463954863,3.625087303478406
1.013408279817579,1.0447492301491719,28.275931909049635,1.6326559510670977,0.04184980237670338,4.062407494673982,0.01666922686050289,0.2475649518931182,3.6804108717404067
0.9599764694910656,1.0397553925206369,28.40939065636429,1.5861451039275463,0.04647237074732474,4.022615353140391,0.03917356417086171,0.34125917308804005,3.7347778313985747
0.9093024967912267,1.0276213447471139,28.54495925625478,1.544709121108973,0.05145516348641929,4.050811902171988,0.06883129809445242,0.2783306022780795,3.7848845261268487
0.8617001569968307,1.0092013815625127,28.67575662858438,1.5211063790156742,0.04791912795004578,3.7651922328041407,0.1285024025387104,0.24386517329789836,3.825245645825939
0.8172743374272913,0.9852391922046841,28.797031268531768,1.5088157146921368,0.05218204845311885,3.5543271793632654,0.1868984025421022,0.2548392997204437,3.8930311598559943
0.7763013792449772,0.9561775873727065,28.913795148587997,1.507187489287122,0.05292154084603173,3.4408334297435665,0.23643123302829067,0.23648149128242824,3.9561767277016564
0.7390351587334917,0.9224814132616356,29.030897060801284,1.5048088603462826,0.06592572494905508,3.6715838030143835,0.26641918957984023,0.3366117845328021,4.019237004269939
0.7065886450721921,0.8842663017479406,29.160167577539994,1.5043092080269067,0.07108118004839782,4.055594029904185,0.31372050381668837,0.33126234549695666,4.082583134782536
0.6793712525073715,0.8419216703602048,29.29702800902291,1.5179095773560292,0.06227088979037129,4.084255702263224,0.34899263186497514,0.27897938871180056,4.141399665474018
0.6576075648833444,0.7958868696371129,29.431949347676337,1.536412531177843,0.05987968549185261,4.050593165658299,0.37980057402763345,0.31216654622223156,4.193113357600593
0.6420431761030069,0.7467523843708768,29.56789797505388,1.5571900493984783,0.05725715647586591,4.088771064098167,0.3998552354373935,0.2954398618053252,4.230346027741486
0.6329055212753193,0.6952228228733386,29.702290404440326,1.584467538087127,0.04756665589235086,3.933652030856253,0.4096427539125091,0.25417558840491283,4.262986210064253
0.6299951224165652,0.6419539768065168,29.825724133700636,1.6185574523575414,0.028268817494861726,3.3790887027645926,0.3978955556996092,0.1753214710901701,4.360190298787001
0.6323724972979876,0.5874587600748156,29.923126653272316,1.6552587274950015,0.008527062302775765,2.4080439608989455,0.38179894717815765,0.09693033833004067,4.424918782757055
0.6386068213682388,0.5320694527145476,29.983952071602218,1.6882248927466428,-0.008361008691763937,1.2130445447581373,0.33738010684469477,0.014488585061058254,4.482706504301155
0.6466728384383216,0.4759531632874912,30.003431829838387,1.711250656311876,-0.023133283117564886,-0.03966439397023147,0.2872886069661667,-0.06581434195155991,4.539353826403711
0.6542248552230069,0.4192164626556754,29.980766749816254,1.7197053336768096,-0.04046745800717008,-1.3220183867085566,0.2388360722616355,-0.16541107891476106,4.596159340765768
0.6588733334132953,0.36210929661438834,29.919018914636144,1.716797568934338,-0.044187985716580905,-2.307633630317272,0.20709848364879674,-0.19676064164976548,4.6532503355086465
0.659075683980969,0.3050678985957584,29.82910354256606,1.7034102782029428,-0.052389872457491195,-3.0939672854695432,0.21298277804706026,-0.30164554780456365,4.710205619495789
0.6533393433214039,0.2488284343506162,29.716699488008715,1.6913498657873112,-0.04569465654658911,-3.5352941866288874,0.219813628811166,-0.24005741548918835,4.766441831558219
0.6415350913041132,0.19381349983741386,29.598516042130175,1.6854232435950036,-0.037197528634846655,-3.5410913281964245,0.2291341986172637,-0.24121006989497407,4.824406416656969
0.6236029802531745,0.14066585183265928,29.482456228606253,1.6819939664597896,-0.02967929952758546,-3.373841326837868,0.22212164274791235,-0.20404546224714665,4.884499970629413
0.5998990525307063,0.0899422034232129,29.37051362192286,1.6775281285720303,-0.03870544011963644,-3.429278296735931,0.27133369079875036,-0.2796767536779221,4.928583795507324
0.5702861616870274,0.04257804871747719,29.251571801956235,1.6767943039703912,-0.04341400566653546,-3.690610725216629,0.3127067676841411,-0.27729056574279737,4.981427611945481
0.5350568361711838,-0.0009180034812003787,29.126608263165515,1.6837607111054387,-0.039090088923945415,-3.7791442505689066,0.3329015481725168,-0.26198844588224146,5.038142960417411
0.4945828183586144,-0.040061574929247716,29.00205715086959,1.6971475056259364,-0.030409653747140844,-3.654443566423363,0.34744661121837583,-0.22769678473919625,5.098172981585484
0.44942273074232536,-0.07456816129819763,28.884479349584883,1.7146189401074283,-0.023825303863398466,-3.3918427277921257,0.3503609238350306,-0.20580416985402383,5.160260897232484
0.4003116770154316,-0.1043658548547895,28.77974725604345,1.733459274575551,-0.007713693792205604,-2.782287025387252,0.2945258282776252,-0.12379278004538558,5.223168444422935
0.348298910768378,-0.12994238571069214,28.694576042195767,1.7416358251982156,-0.021172410215882398,-2.4854734267726197,0.2524958860921147,-0.18272838577223527,5.283548885196348
0.29403916384668977,-0.15038478882251538,28.60644950603795,1.7360649562487784,-0.03598953483139955,-2.8471243252843688,0.20610108832588017,-0.22837074495527057,5.34377729122359
0.23832896612696625,-0.16520982191692501,28.50517706430626,1.7233792465864255,-0.03906042034693301,-3.2069265139804535,0.19151740628965197,-0.23792416503358896,5.398503932862938
0.18192913297880103,-0.17376452557533748,28.390955841679727,1.6959692144933398,-0.047609425406054756,-3.681338633199847,0.15678859318492067,-0.37400738272571954,5.454542649685481
0.12606792351364499,-0.17505762172662373,28.260621681369045,1.6581668074222875,-0.050214300502999125,-4.102984443986154,0.14406104109675358,-0.3561449610287909,5.510321082720262
0.07165546796659113,-0.16894689023149148,28.121687493124213,1.6318118900317133,-0.04139396225788472,-4.132210688332127,0.15831771440874276,-0.26078892514757507,5.565329127585804
0.01915665134810747,-0.15590677703467917,27.98756145092655,1.6153024317792188,-0.03877082143976946,-3.94699414785213,0.19599641256084088,-0.27968159366271944,5.617301695033468
-0.030603644788827898,-0.13608011427205563,27.855301150055755,1.599898792898512,-0.04813430105909825,-4.02946809183409,0.24176619407553643,-0.33491656517582075,5.66988181227311
-0.07677078702781201,-0.10973312829299339,27.718901126962553,1.5932786742908025,-0.049910905594801575,-4.117747535680643,0.2851619449177405,-0.2945092770313443,5.724507581622604
-0.11894734872278681,-0.07738741379419577,27.582317325551664,1.5978923835402612,-0.047607527510493394,-4.078035315160047,0.32863192774127703,-0.2939082418658336,5.7785128898275175
-0.15662154173223863,-0.03948398721550578,27.44766308554994,1.6114529564878097,-0.04355642234885289,-3.9806321012720463,0.36834701295612804,-0.2682451542046187,5.823975954605166
-0.18940138671344015,0.0034319039724382064,27.316703060334667,1.6297092493347047,-0.04215455805003792,-3.898447941279794,0.3849074723981921,-0.2779984172148282,5.903393295349199
-0.21664890282413332,0.05075971604602953,27.186698336119374,1.6482204274681707,-0.041892277774522806,-3.9093814344900695,0.39517898365081405,-0.2822497490343709,5.974954790579793
-0.23783144104100096,0.1017847153996845,27.05649391624773,1.6683786436794723,-0.037949662187242564,-3.8875511723680822,0.3985929765809826,-0.2652249778578303,6.0435153416884315
-0.25264373864674133,0.15574183750991813,26.928868094847438,1.6905562354694266,-0.03104833561167402,-3.7493345982613606,0.39265524002826985,-0.23953942331171138,6.108437107975561
-0.26104889313210194,0.2118413055692726,26.80890072768681,1.7150546973103926,-0.020249602821150008,-3.3993457741149196,0.37593912445020045,-0.18930271045853003,6.167238405509184
-0.2635452248092772,0.26936885930313714,26.70543148324571,1.7414138624023994,-0.00772700637736503,-2.758990394953324,0.35538421270571013,-0.13065697719302827,6.2254255886538505
-0.2611568649997618,0.3277896204697712,26.627694964860783,1.7672630073674758,0.004100236591939801,-1.8645508222360965,0.326227881501657,-0.06479241735455839,6.284007859931071
-0.2554822163225479,0.3867831271898772,26.583123064451147,1.7873395025117809,0.01583329387800627,-0.7859974933433733,0.27212182487799386,0.007672474034097598,6.343015761408569
-0.24867033368539232,0.4461536322901994,26.5775036648029,1.7955646744082931,0.03135663870436995,0.47122680359974134,0.21894879099980435,0.10085602645791697,6.402348005818267
-0.24326687448821568,0.5057171806893058,26.61394497719586,1.7905920749940865,0.04044002604619347,1.6809059077393804,0.184817934037104,0.17339476591120562,6.461856801314897
-0.241382856711893,0.5651277949097858,26.68617734429546,1.7738381246679056,0.04507929471234085,2.6160291868859558,0.15414722795809885,0.23466886557789268,6.521194192366558
-0.24464462147403376,0.6237675048968929,26.78428147559329,1.74991313860367,0.04306598268636478,3.2147502851474847,0.13792189953295683,0.2509402811956139,6.579771262387017
-0.25398890189917334,0.6807698953132236,26.900095978241602,1.7133541572049464,0.04725284703618163,3.7438077832794945,0.1297279709099207,0.3858443415360554,6.6366095574724655
-0.2700879511500339,0.7348551134749283,27.031811183401686,1.6769157700831998,0.045615653638536875,4.098223073872646,0.16328878667302693,0.3124890372640761,6.690639366006051
-0.29283589225176254,0.7854622899943158,27.16970915151559,1.6553830064153314,0.039702841346851175,4.146688690917524,0.2082825109336631,0.2966064768758741,6.742477135791403
-0.32194332709415735,0.8320351273122557,27.30765329859463,1.6427494301368166,0.03893914505622646,4.133882845629667,0.2611416136263678,0.30592465994247287,6.791971703303379
-0.3570227940968589,0.8739396037845822,27.445367136505148,1.6397881550850522,0.039481810479642596,4.123424241092776,0.31740905865322555,0.2984634126455828,6.837957896826469
-0.39757220343222377,0.9107055636254536,27.582315069532342,1.6476852790673755,0.038708773900577566,4.091540161876379,0.3727778556843402,0.29252099329277603,6.882604674329826
-0.44306390674143015,0.9419044912895143,27.717999096490082,1.6651332303064752,0.036486759521998834,4.046947028894886,0.4197467259769779,0.2841613650868964,6.92513934764095
-0.4929047948760614,0.9671430229421528,27.85143339896617,1.6893916607534687,0.031256776087493277,3.942835759805366,0.43157563948245914,0.259825194696211,6.964946715444211
-0.5463292972894627,0.9866448622283142,27.9699934815853,1.7279956854021266,-0.012711802220089795,2.8217466122828387,0.41682723471682837,0.05897768033273759,7.0869810412661165
-0.6022620761845754,1.0029384839243631,28.032611345909057,1.7658328426994019,-0.027543083727914745,1.009707761404342,0.3853196057893128,-0.013687485697321145,7.170202828208575
-0.6598636626740588,1.0174836791619677,28.045615712833918,1.7973718086429573,-0.019598707018301603,-0.10087819562310685,0.34966141788680905,-0.04076607527117121,7.235138452374494
-0.7184659353454391,1.031935503651772,28.035679431854703,1.823212224890629,-0.004499334950950177,-0.3631111133701889,0.31842045958417586,-0.014782250060298492,7.295486284156761
-0.7777746281867394,1.0466532489809228,28.02782937534574,1.8416846366278405,0.007126938666087674,-0.05269741357098351,0.2694757706426553,0.01975506352469711,7.355159355264707
-0.8375913862432965,1.0611340950729058,28.035967780678348,1.8485075852918378,0.020360224274171397,0.5907944180160172,0.20520687481309413,0.07774066976691572,7.415011215905713
-0.8977657287639209,1.073906565821109,28.070798740460493,1.8391366155811402,0.03433170263160036,1.5302049361890173,0.14188456994029622,0.15946651124269212,7.4751191772299475
-0.9579903962246957,1.0831306369614502,28.137077676604616,1.8145405516293436,0.03902761862758294,2.4099371848195927,0.09141259146339323,0.20617916789991392,7.535263755564442
